#Time Flux Flux-Trend Trend
2849.79533245 -0.00575238 -0.00250513 -0.00324725
2849.81576428 -0.00609043 -0.00324934 -0.00284109
2849.83619600 -0.00619613 -0.00374947 -0.00244666
2849.85662763 -0.00615204 -0.00411509 -0.00203694
2849.87705946 -0.00608474 -0.00443061 -0.00165413
2849.89749119 -0.00602239 -0.00474132 -0.00128107
2849.91792291 -0.00584166 -0.00494869 -0.00089298
2849.93835464 -0.00562011 -0.00510547 -0.00051465
2849.95878637 -0.00531492 -0.00516114 -0.00015378
2849.97921809 -0.00500989 -0.00560614 0.00059626
2849.99964982 -0.00466987 -0.00613091 0.00146104
2850.02008154 -0.00415413 -0.00633436 0.00218024
2850.04051337 -0.00409980 -0.00665879 0.00255899
2850.06094499 -0.00368625 -0.00697503 0.00328878
2850.08137672 -0.00328207 -0.00725778 0.00397571
2850.10180854 -0.00264287 -0.00724728 0.00460441
2850.12224017 -0.00182804 -0.00703517 0.00520712
2850.14267189 -0.00100056 -0.00671113 0.00571056
2850.16310372 -0.00013432 -0.00626647 0.00613215
2850.18353534 0.00068024 -0.00582299 0.00650324
2850.22439889 0.00215495 -0.00485458 0.00700953
2850.24483051 0.00291500 -0.00431438 0.00722937
2850.26526223 0.00362172 -0.00361390 0.00723562
2850.28569406 0.00412545 -0.00309993 0.00722538
2850.30612568 0.00450651 -0.00264188 0.00714838
2850.32655740 0.00462082 -0.00239810 0.00701892
2850.34698922 0.00466329 -0.00209308 0.00675637
2850.36742085 0.00455132 -0.00202127 0.00657259
2850.38785267 0.00441765 -0.00191738 0.00633503
2850.40828439 0.00448634 -0.00146180 0.00594815
2850.42871611 0.00444364 -0.00112653 0.00557017
2850.44914783 0.00442372 -0.00070905 0.00513277
2850.46957955 0.00433964 -0.00034765 0.00468729
2850.49001127 0.00419129 -0.00002434 0.00421562
2850.51044299 0.00415640 0.00044546 0.00371094
2850.53087471 0.00405493 0.00057674 0.00347818
2850.55130643 0.00356553 0.00056003 0.00300549
2850.57173825 0.00301905 0.00049737 0.00252168
2850.59216987 0.00230897 0.00024229 0.00206668
2850.61260159 0.00130803 -0.00046055 0.00176858
2850.63303341 0.00044997 -0.00095819 0.00140816
2850.65346503 -0.00042060 -0.00151950 0.00109889
2850.67389685 -0.00115342 -0.00191514 0.00076172
2850.71476018 -0.00165028 -0.00180678 0.00015650
2850.73519200 -0.00144819 -0.00142548 -0.00002271
2850.75562372 -0.00118173 -0.00098012 -0.00020162
2850.77605533 -0.00084542 -0.00041742 -0.00042800
2850.79648715 -0.00101448 -0.00044575 -0.00056872
2850.81691887 -0.00111954 -0.00034273 -0.00077682
2850.83735048 -0.00108023 -0.00015089 -0.00092934
2850.85778230 -0.00119368 -0.00020243 -0.00099125
2850.87821392 -0.00102003 0.00007182 -0.00109186
2850.89864563 -0.00088389 0.00035882 -0.00124270
2850.91907745 -0.00070205 0.00070452 -0.00140657
2850.93950916 -0.00053125 0.00110635 -0.00163761
2850.95994078 -0.00045963 0.00144048 -0.00190012
2850.98037259 -0.00047953 0.00162415 -0.00210368
2851.00080431 -0.00042127 0.00188178 -0.00230304
2851.02123602 0.00007077 0.00244379 -0.00237302
2851.04166774 -0.00004920 0.00253188 -0.00258108
2851.06209945 -0.00008649 0.00268095 -0.00276744
2851.08253117 -0.00012862 0.00281172 -0.00294033
2851.10296288 -0.00012368 0.00296448 -0.00308816
2851.12339459 0.00004835 0.00323451 -0.00318616
2851.14382641 0.00063387 0.00388931 -0.00325543
2851.16425802 0.00130438 0.00445181 -0.00314743
2851.20512154 0.00261828 0.00543154 -0.00281326
2851.22555316 0.00320723 0.00576743 -0.00256020
2851.24598487 0.00380899 0.00608630 -0.00227731
2851.26641668 0.00404790 0.00621531 -0.00216741
2851.28684829 0.00442753 0.00629574 -0.00186821
2851.30728010 0.00516726 0.00666798 -0.00150072
2851.32771181 0.00600061 0.00716979 -0.00116919
2851.34814343 0.00669554 0.00748008 -0.00078455
2851.36857524 0.00652725 0.00721790 -0.00069065
2851.38900695 0.00710799 0.00748664 -0.00037865
2851.40943866 0.00708929 0.00719340 -0.00010411
2851.45030208 0.00623188 0.00580604 0.00042584
2851.47073379 0.00545839 0.00477307 0.00068532
2851.49116550 0.00467571 0.00379490 0.00088081
2851.51159721 0.00420480 0.00320660 0.00099820
2851.53202892 0.00284833 0.00188946 0.00095887
2851.55246062 0.00155741 0.00066609 0.00089131
2851.57289233 0.00021568 -0.00057392 0.00078959
2851.59332394 -0.00121088 -0.00191955 0.00070868
2851.61375575 -0.00174569 -0.00241741 0.00067172
2851.63418746 -0.00255987 -0.00323098 0.00067110
2851.65461926 -0.00335643 -0.00401522 0.00065879
2851.69548258 -0.00497212 -0.00565200 0.00067988
2851.71591439 -0.00573270 -0.00648361 0.00075091
2851.73634599 -0.00618586 -0.00706761 0.00088176
2851.75677770 -0.00648126 -0.00758991 0.00110865
2851.77720951 -0.00661188 -0.00793427 0.00132238
2851.79764111 -0.00666632 -0.00827544 0.00160912
2851.81807282 -0.00645354 -0.00839493 0.00194139
2851.83850462 -0.00621703 -0.00845376 0.00223673
2851.85893623 -0.00574913 -0.00822130 0.00247217
2851.87936794 -0.00517569 -0.00797193 0.00279625
2851.89979974 -0.00442277 -0.00759023 0.00316747
2851.92023135 -0.00327990 -0.00676392 0.00348403
2851.94066305 -0.00200336 -0.00578431 0.00378095
2851.96109486 -0.00080965 -0.00486154 0.00405189
2851.98152656 0.00025247 -0.00404742 0.00429990
2852.00195826 0.00079640 -0.00372703 0.00452343
2852.02238997 0.00146063 -0.00314094 0.00460157
2852.04282167 0.00196431 -0.00258491 0.00454922
2852.06325347 0.00245814 -0.00197667 0.00443481
2852.08368508 0.00269998 -0.00145290 0.00415288
2852.10411678 0.00276702 -0.00100392 0.00377094
2852.12454858 0.00280281 -0.00044154 0.00324434
2852.14498019 0.00266163 0.00016553 0.00249611
2852.18584369 0.00178519 0.00092596 0.00085923
2852.20627529 0.00099890 0.00096419 0.00003471
2852.22670699 0.00018824 0.00093920 -0.00075096
2852.24713880 -0.00079860 0.00081834 -0.00161695
2852.26757040 -0.00202972 0.00042597 -0.00245569
2852.28800210 -0.00335521 -0.00005595 -0.00329926
2852.30843380 -0.00466808 -0.00054893 -0.00411915
2852.32886550 -0.00602441 -0.00109488 -0.00492953
2852.34929730 -0.00636892 -0.00125208 -0.00511684
2852.36972890 -0.00709913 -0.00135791 -0.00574122
2852.39016060 -0.00766304 -0.00138803 -0.00627500
2852.41059240 -0.00818378 -0.00147054 -0.00671324
2852.43102410 -0.00861815 -0.00156672 -0.00705144
2852.45145570 -0.00884697 -0.00153162 -0.00731535
2852.47188750 -0.00900575 -0.00163720 -0.00736854
2852.49231920 -0.00931559 -0.00185847 -0.00745711
2852.51275080 -0.00916240 -0.00185828 -0.00730412
2852.53318260 -0.00882490 -0.00168784 -0.00713706
2852.55361429 -0.00835344 -0.00143651 -0.00691693
2852.57404589 -0.00797352 -0.00127849 -0.00669503
2852.59447769 -0.00748636 -0.00112239 -0.00636397
2852.61490939 -0.00700443 -0.00103660 -0.00596783
2852.63534099 -0.00633800 -0.00075178 -0.00558623
2852.67620448 -0.00472995 0.00006613 -0.00479608
2852.69663628 -0.00375557 0.00062620 -0.00438177
2852.71706787 -0.00278959 0.00124450 -0.00403410
2852.73749957 -0.00179784 0.00187001 -0.00366785
2852.75793137 -0.00084421 0.00253723 -0.00338143
2852.77836296 0.00005201 0.00320118 -0.00314917
2852.79879466 0.00075945 0.00379646 -0.00303701
2852.81922646 0.00133849 0.00438400 -0.00304551
2852.83965805 0.00144961 0.00461318 -0.00316357
2852.86008975 0.00169466 0.00488871 -0.00319405
2852.88052154 0.00206271 0.00532277 -0.00326005
2852.90095324 0.00235551 0.00572520 -0.00336970
2852.92138483 0.00260948 0.00607024 -0.00346077
2852.94181663 0.00278104 0.00637854 -0.00359749
2852.96224832 0.00295392 0.00672726 -0.00377334
2852.98267991 0.00300670 0.00692259 -0.00391589
2853.00311171 0.00312345 0.00723152 -0.00410807
2853.02354340 0.00325158 0.00752346 -0.00427187
2853.04397509 0.00312135 0.00758744 -0.00446609
2853.06440679 0.00304423 0.00761058 -0.00456635
2853.08483838 0.00288208 0.00757244 -0.00469036
2853.10527017 0.00257231 0.00734126 -0.00476895
2853.12570187 0.00230297 0.00708534 -0.00478237
2853.14613346 0.00221171 0.00695214 -0.00474043
2853.16656525 0.00204454 0.00665699 -0.00461244
2853.18699694 0.00176365 0.00623611 -0.00447247
2853.20742854 0.00136673 0.00564586 -0.00427913
2853.22786033 0.00123361 0.00547595 -0.00424233
2853.24829202 0.00024400 0.00437378 -0.00412978
2853.26872371 -0.00064895 0.00345397 -0.00410292
2853.28915540 -0.00153528 0.00259157 -0.00412686
2853.30958709 -0.00247976 0.00171585 -0.00419561
2853.33001878 -0.00335067 0.00094146 -0.00429214
2853.35045047 -0.00422541 0.00011659 -0.00434200
2853.37088216 -0.00518290 -0.00077215 -0.00441075
2853.41174564 -0.00753810 -0.00298131 -0.00455680
2853.43217723 -0.00882158 -0.00426003 -0.00456155
2853.45260902 -0.01011275 -0.00555731 -0.00455544
2853.47304071 -0.01084878 -0.00623671 -0.00461207
2853.49347230 -0.01173043 -0.00717752 -0.00455292
2853.51390409 -0.01234263 -0.00774248 -0.00460015
2853.53433578 -0.01272043 -0.00808176 -0.00463868
2853.55476737 -0.01286915 -0.00808678 -0.00478237
2853.57519916 -0.01255520 -0.00785271 -0.00470249
2853.59563084 -0.01212259 -0.00739465 -0.00472795
2853.61606243 -0.01166636 -0.00701475 -0.00465161
2853.65692591 -0.01078848 -0.00639628 -0.00439220
2853.67735749 -0.01042453 -0.00615275 -0.00427178
2853.69778928 -0.01018424 -0.00603429 -0.00414995
2853.71822097 -0.01000692 -0.00600153 -0.00400539
2853.73865266 -0.00938333 -0.00558109 -0.00380223
2853.75908434 -0.00858481 -0.00490727 -0.00367754
2853.77951603 -0.00780425 -0.00427036 -0.00353389
2853.79994771 -0.00686624 -0.00336102 -0.00350522
2853.82037940 -0.00665756 -0.00319818 -0.00345938
2853.84081109 -0.00623329 -0.00278880 -0.00344449
2853.86124277 -0.00588258 -0.00258520 -0.00329738
2853.88167446 -0.00536857 -0.00217866 -0.00318991
2853.90210614 -0.00473887 -0.00171414 -0.00302473
2853.92253783 -0.00389416 -0.00101423 -0.00287993
2853.94296951 -0.00301653 -0.00039087 -0.00262566
2853.96340120 -0.00281875 -0.00025053 -0.00256822
2853.98383298 -0.00207805 0.00020156 -0.00227961
2854.00426457 -0.00138846 0.00058014 -0.00196860
2854.02469625 -0.00086758 0.00072335 -0.00159093
2854.04512803 -0.00031191 0.00087297 -0.00118489
2854.06555962 0.00019650 0.00100079 -0.00080429
2854.08599130 0.00058675 0.00103504 -0.00044828
2854.10642308 0.00081821 0.00090221 -0.00008400
2854.14728645 0.00137882 0.00080786 0.00057096
2854.16771813 0.00162939 0.00070438 0.00092501
2854.18814971 0.00187063 0.00051821 0.00135242
2854.20858150 0.00207821 0.00035574 0.00172248
2854.22901318 0.00218437 -0.00005356 0.00223794
2854.24944486 0.00232747 -0.00042761 0.00275508
2854.26987654 0.00233039 -0.00096609 0.00329647
2854.29030822 0.00229016 -0.00152258 0.00381274
2854.31073991 0.00266272 -0.00139718 0.00405990
2854.33117159 0.00305877 -0.00147848 0.00453725
2854.35160327 0.00377304 -0.00126092 0.00503396
2854.37203495 0.00490928 -0.00062586 0.00553513
2854.39246663 0.00610160 0.00008467 0.00601692
2854.41289831 0.00732644 0.00077872 0.00654772
2854.43332999 0.00844377 0.00136528 0.00707849
2854.45376167 0.00901556 0.00165021 0.00736535
2854.47419335 0.01000569 0.00200634 0.00799935
2854.49462513 0.01104839 0.00245417 0.00859421
2854.51505671 0.01203948 0.00293116 0.00910832
2854.53548839 0.01300133 0.00353317 0.00946816
2854.55592017 0.01405222 0.00433494 0.00971728
2854.57635175 0.01499494 0.00525223 0.00974272
2854.59678343 0.01575491 0.00604190 0.00971302
2854.63764678 0.01681244 0.00743863 0.00937381
2854.65807846 0.01714216 0.00801568 0.00912648
2854.67851024 0.01716988 0.00834134 0.00882854
2854.69894182 0.01690098 0.00843789 0.00846309
2854.71937349 0.01628332 0.00824996 0.00803336
2854.73980527 0.01548934 0.00793233 0.00755701
2854.76023685 0.01468485 0.00769427 0.00699058
2854.78066853 0.01393862 0.00766588 0.00627274
2854.80110030 0.01343963 0.00747677 0.00596286
2854.82153198 0.01279155 0.00749174 0.00529981
2854.84196366 0.01207761 0.00740863 0.00466898
2854.86239533 0.01126194 0.00717246 0.00408948
2854.88282701 0.01047096 0.00679824 0.00367272
2854.90325868 0.00955898 0.00625539 0.00330359
2854.92369036 0.00864511 0.00555756 0.00308755
2854.94412204 0.00773819 0.00481040 0.00292779
2854.96455381 0.00687587 0.00402916 0.00284671
2854.98498539 0.00621008 0.00346405 0.00274603
2855.00541706 0.00543786 0.00270232 0.00273554
2855.02584884 0.00464387 0.00199177 0.00265210
2855.04628041 0.00374786 0.00112982 0.00261804
2855.06671209 0.00284140 0.00022323 0.00261816
2855.08714386 0.00203977 -0.00058707 0.00262684
2855.10757543 0.00117588 -0.00150895 0.00268483
2855.12800721 0.00032049 -0.00252556 0.00284605
2855.14843888 -0.00062063 -0.00358152 0.00296089
2855.16887046 -0.00150256 -0.00459305 0.00309049
2855.18930223 -0.00184912 -0.00504718 0.00319806
2855.20973380 -0.00252164 -0.00575883 0.00323720
2855.23016548 -0.00317517 -0.00632288 0.00314771
2855.25059725 -0.00372698 -0.00686151 0.00313453
2855.27102882 -0.00422796 -0.00718647 0.00295850
2855.29146049 -0.00474583 -0.00759071 0.00284488
2855.31189227 -0.00510924 -0.00780840 0.00269916
2855.33232394 -0.00563703 -0.00818760 0.00255057
2855.37318728 -0.00634267 -0.00855964 0.00221697
2855.39361895 -0.00644014 -0.00846720 0.00202706
2855.41405053 -0.00645165 -0.00826825 0.00181660
2855.43448230 -0.00657844 -0.00830103 0.00172258
2855.45491397 -0.00599737 -0.00752554 0.00152817
2855.47534574 -0.00559469 -0.00693741 0.00134272
2855.49577731 -0.00498596 -0.00615998 0.00117402
2855.51620898 -0.00440316 -0.00526282 0.00085967
2855.53664075 -0.00432768 -0.00507368 0.00074600
2855.55707232 -0.00388011 -0.00442578 0.00054567
2855.57750399 -0.00326217 -0.00364758 0.00038541
2855.61836733 -0.00230108 -0.00243052 0.00012944
2855.63879900 -0.00196271 -0.00186038 -0.00010233
2855.65923077 -0.00206447 -0.00173449 -0.00032998
2855.67966234 -0.00187097 -0.00135329 -0.00051768
2855.70009401 -0.00153283 -0.00080729 -0.00072554
2855.72052578 -0.00128074 -0.00042690 -0.00085384
2855.74095735 -0.00092596 0.00005673 -0.00098268
2855.76138901 -0.00058363 0.00054503 -0.00112866
2855.78182078 -0.00051060 0.00073278 -0.00124338
2855.80225245 -0.00063219 0.00083914 -0.00147133
2855.82268412 -0.00104992 0.00075857 -0.00180849
2855.84311579 -0.00153098 0.00065222 -0.00218320
2855.86354745 -0.00199706 0.00049453 -0.00249160
2855.88397912 -0.00192216 0.00066523 -0.00258738
2855.90441079 -0.00198913 0.00068633 -0.00267547
2855.92484236 -0.00230845 0.00048856 -0.00279701
2855.94527412 -0.00343521 0.00011120 -0.00354641
2855.96570579 -0.00450015 -0.00009810 -0.00440205
2855.98613746 -0.00558056 -0.00034507 -0.00523549
2856.00656912 -0.00645812 -0.00040870 -0.00604942
2856.02700079 -0.00755291 -0.00063241 -0.00692050
2856.10872735 -0.01227744 -0.00213126 -0.01014618
2856.12915912 -0.01317620 -0.00236892 -0.01080728
2856.14959078 -0.01398787 -0.00263061 -0.01135726
2856.17002255 -0.01394600 -0.00219911 -0.01174689
2856.19045411 -0.01358082 -0.00156499 -0.01201583
2856.21088578 -0.01310968 -0.00093920 -0.01217049
2856.23131754 -0.01239017 -0.00046599 -0.01192418
2856.25174911 -0.01157985 0.00009495 -0.01167480
2856.27218077 -0.01075250 0.00067129 -0.01142378
2856.29261253 -0.00984394 0.00140414 -0.01124808
2856.31304420 -0.00870519 0.00228193 -0.01098713
2856.33347576 -0.00748416 0.00314832 -0.01063248
2856.35390753 -0.00620830 0.00406028 -0.01026859
2856.37433919 -0.00488441 0.00500879 -0.00989320
2856.39477075 -0.00361119 0.00593729 -0.00954848
2856.41520251 -0.00268048 0.00657542 -0.00925590
2856.43563418 -0.00160729 0.00727778 -0.00888507
2856.45606574 -0.00078946 0.00779514 -0.00858460
2856.47649750 -0.00011630 0.00822736 -0.00834366
2856.49692917 0.00046753 0.00872575 -0.00825822
2856.51736093 0.00080964 0.00903834 -0.00822870
2856.53779249 0.00080547 0.00921485 -0.00840938
2856.55822415 0.00073726 0.00937256 -0.00863530
2856.59908747 -0.00002776 0.00920330 -0.00923106
2856.61951914 -0.00085742 0.00873425 -0.00959167
2856.63995090 -0.00191932 0.00792214 -0.00984146
2856.66038246 -0.00328218 0.00680844 -0.01009063
2856.68081412 -0.00466235 0.00564120 -0.01030355
2856.70124578 -0.00610188 0.00440243 -0.01050430
2856.72167744 -0.00760469 0.00309869 -0.01070338
2856.74210910 -0.00914551 0.00169877 -0.01084428
2856.76254076 -0.00973125 0.00099284 -0.01072409
2856.78297242 -0.01081926 0.00002499 -0.01084424
2856.80340408 -0.01164276 -0.00075081 -0.01089195
2856.82383584 -0.01246245 -0.00164870 -0.01081375
2856.84426740 -0.01315679 -0.00259465 -0.01056214
2856.86469916 -0.01387682 -0.00364432 -0.01023251
2856.88513082 -0.01429138 -0.00460138 -0.00968999
2856.90556238 -0.01469612 -0.00560637 -0.00908975
2856.92599414 -0.01487748 -0.00651032 -0.00836716
2856.94642580 -0.01488166 -0.00722131 -0.00766035
2856.96685735 -0.01463415 -0.00772400 -0.00691015
2856.98728911 -0.01407126 -0.00793207 -0.00613919
2857.00772077 -0.01326991 -0.00795613 -0.00531379
2857.02815233 -0.01245828 -0.00789380 -0.00456449
2857.04858409 -0.01148891 -0.00774039 -0.00374852
2857.06901575 -0.01065884 -0.00776090 -0.00289795
2857.08944730 -0.00976125 -0.00762603 -0.00213523
2857.10987906 -0.00900103 -0.00759675 -0.00140428
2857.13031072 -0.00819781 -0.00750575 -0.00069206
2857.15074248 -0.00777174 -0.00756759 -0.00020415
2857.17117403 -0.00653380 -0.00694637 0.00041257
2857.19160569 -0.00542615 -0.00636715 0.00094100
2857.21203745 -0.00432483 -0.00571735 0.00139252
2857.23246900 -0.00346270 -0.00523089 0.00176819
2857.25290066 -0.00269355 -0.00477265 0.00207910
2857.27333241 -0.00198446 -0.00427319 0.00228872
2857.29376407 -0.00139485 -0.00380200 0.00240715
2857.33462738 -0.00047337 -0.00298299 0.00250963
2857.35505904 -0.00020174 -0.00263053 0.00242878
2857.37549059 0.00002466 -0.00223299 0.00225765
2857.39592235 0.00019969 -0.00197520 0.00217490
2857.41635390 0.00061038 -0.00144548 0.00205586
2857.43678556 0.00101355 -0.00064638 0.00165993
2857.45721731 0.00127472 0.00006649 0.00120823
2857.47764887 0.00126131 0.00046735 0.00079395
2857.49808062 0.00087806 0.00041846 0.00045960
2857.51851228 0.00020467 0.00022784 -0.00002318
2857.53894383 -0.00045035 0.00010061 -0.00055096
2857.60023879 -0.00245168 -0.00025104 -0.00220064
2857.62067055 -0.00310335 -0.00031654 -0.00278681
2857.64110220 -0.00378443 -0.00038243 -0.00340200
2857.66153385 -0.00456050 -0.00055004 -0.00401046
2857.68196551 -0.00529802 -0.00068843 -0.00460959
2857.70239716 -0.00599526 -0.00074721 -0.00524805
2857.72282881 -0.00675756 -0.00102730 -0.00573025
2857.74326046 -0.00690376 -0.00094477 -0.00595900
2857.76369212 -0.00710941 -0.00090814 -0.00620127
2857.78412377 -0.00779163 -0.00110342 -0.00668821
2857.80455552 -0.00829577 -0.00109755 -0.00719822
2857.82498707 -0.00871737 -0.00094645 -0.00777092
2857.84541883 -0.00917484 -0.00091617 -0.00825867
2857.86585048 -0.00963219 -0.00093183 -0.00870036
2857.88628203 -0.00995007 -0.00080970 -0.00914037
2857.90671378 -0.01026800 -0.00074785 -0.00952014
2857.92714543 -0.01059539 -0.00067474 -0.00992066
2857.94757698 -0.01089915 -0.00060318 -0.01029596
2857.96800873 -0.01116910 -0.00053098 -0.01063812
2857.98844038 -0.01133774 -0.00045477 -0.01088297
2858.00887194 -0.01110978 0.00004073 -0.01115051
2858.02930369 -0.01054981 0.00083747 -0.01138728
2858.04973534 -0.00996064 0.00166911 -0.01162975
2858.07016689 -0.00936987 0.00254550 -0.01191537
2858.09059864 -0.00914190 0.00295550 -0.01209740
2858.11103029 -0.00871141 0.00351412 -0.01222552
2858.13146204 -0.00813527 0.00412745 -0.01226272
2858.15189359 -0.00756719 0.00465578 -0.01222297
2858.17232524 -0.00700798 0.00504106 -0.01204903
2858.19275689 -0.00635921 0.00548302 -0.01184224
2858.21318853 -0.00562052 0.00602964 -0.01165016
2858.23362018 -0.00493558 0.00643986 -0.01137544
2858.25405183 -0.00443245 0.00689038 -0.01132283
2858.27448348 -0.00383229 0.00741004 -0.01124233
2858.29491513 -0.00312373 0.00806539 -0.01118912
2858.31534678 -0.00237667 0.00871371 -0.01109038
2858.33577843 -0.00166063 0.00936057 -0.01102120
2858.35621007 -0.00130077 0.00960894 -0.01090970
2858.37664182 -0.00146699 0.00929116 -0.01075815
2858.39707337 -0.00105915 0.00863683 -0.00969598
2858.56052665 -0.00102254 0.00022081 -0.00124335
2858.58095820 -0.00197672 -0.00151173 -0.00046499
2858.60138994 -0.00265000 -0.00222462 -0.00042539
2858.62182159 -0.00313906 -0.00271944 -0.00041962
2858.64225323 -0.00367470 -0.00325381 -0.00042089
2858.66268488 -0.00416122 -0.00375874 -0.00040249
2858.68311653 -0.00462214 -0.00425366 -0.00036848
